1,0,2,0,3,0,4,0,5,0,6,0,1,0,2,0,3,0,4,0,5,0,6,0
2287,4402,6424,8218,12534,14522,17995,19730,23545,25403,28883,30841,33733,35398,37022,38753,42749,44577,48325,50031,53861,55618,59790,61579
1,0,2,0,3,0,4,0,5,0,6,0,1,0,2,0,3,0,4,0,5,0,6,0
816,2750,4449,6029,9772,11470,15101,16864,20627,22325,25759,27505,30115,31712,33509,35210,39213,41028,44476,46096,49924,51686,54881,56531
1,0,2,0,3,0,4,0,5,0,6,0,1,0,2,0,3,0,4,0,5,0,6,0
2755,4351,6122,7850,12412,14090,19029,20751,25152,26808,37501,39317,42289,44273,45885,47646,51707,53485,57702,59319,63510,65110,68869,70738
1,0,2,0,3,0,4,0,5,0,6,0,1,0,2,0,3,0,4,0,5,0,6,0
1924,3742,5674,7335,11792,13390,17308,19088,23242,25014,28913,30899,33392,35134,36875,38502,42475,44236,48520,50213,54617,56445,60158,61859
1,0,2,0,3,0,4,0,5,0,6,0,1,0,2,0,3,0,4,0,5,0,6,0
1668,3374,5158,6819,10991,12706,16364,18135,21670,23276,26348,27914,30649,32036,33911,35323,38853,40428,44352,45893,49526,51058,54186,55633
1,0,2,0,3,0,4,0,5,0,6,0,1,0,2,0,3,0,4,0,5,0,6,0
1248,2794,6678,8266,11138,12995,15685,17422,19993,21783,23728,25507,27234,29038,30577,32217,34878,36217,38935,40307,43355,44705,47101,48395
1,0,2,0,3,0,4,0,5,0,6,0,1,0,2,0,3,0,4,0,5,0,6,0
763,2243,4045,5629,9070,11028,14568,16475,19795,22042,25667,27749,30558,32233,34109,35929,39642,41660,45363,47548,50808,52752,56004,57709
1,0,2,0,3,0,4,0,5,0,6,0,1,0,2,0,3,0,4,0,5,0,6,0
827,2401,4001,5555,9232,10583,13998,15503,19404,20883,24398,25902,28628,30370,32152,33792,37767,39315,42795,44391,47720,49473,52384,54153
1,0,2,0,3,0,4,0,5,0,6,0,1,0,2,0,3,0,4,0,5,0,6,0
983,3026,4809,6496,10785,12238,15979,17416,21478,23060,26455,28163,30781,32186,34128,35533,39488,41146,44591,46201,49447,51099,54710,56200
1,0,2,0,3,0,4,0,5,0,6,0,1,0,2,0,3,0,4,0,5,0,6,0
1148,2806,4611,6378,9553,11712,13646,15441,18576,20112,22781,24267,26520,27920,29300,31247,33994,35598,38485,40367,43609,44937,47438,48937
1,0,2,0,3,0,4,0,5,0,6,0,1,0,2,0,3,0,4,0,5,0,6,0
901,2534,4372,5877,10141,11535,14336,15917,19071,21248,23963,25820,28133,29893,31330,33155,36294,38160,40425,42125,44644,46411,48789,50127
1,0,2,0,3,0,4,0,5,0,6,0,1,0,2,0,3,0,4,0,5,0,6,0
2361,3730,5162,6543,9429,11089,13419,15234,17868,19521,21692,23122,25241,26293,27651,29183,31940,33683,36469,38061,42398,43895,46336,47700
1,0,2,0,3,0,4,0,5,0,6,0,1,0,2,0,3,0,4,0,5,0,6,0
1948,4075,6075,7907,13034,14946,19400,21607,25808,27961,31396,33557,35735,37414,39772,41685,45270,47325,52105,54154,58579,60625,64462,66619
1,0,2,0,3,0,4,0,5,0,6,0,1,0,2,0,3,0,4,0,5,0,6,0
755,2529,4506,6414,9646,11774,16575,18552,22521,24458,28417,30714,32905,34848,36623,38621,42229,44517,47296,49986,54169,56447,59584,62074
1,0,2,0,3,0,4,0,5,0,6,0,1,0,2,0,3,0,4,0,5,0,6,0
1898,3530,5288,6742,12533,13915,17684,19184,22652,24304,30282,31843,34255,35789,37474,39378,43178,44704,47818,49371,52568,54152,57204,58609
1,0,2,0,3,0,4,0,5,0,6,0,1,0,2,0,3,0,4,0,5,0,6,0
1046,2584,4130,5636,9535,11054,14968,16282,19695,21230,24355,26383,29467,31231,33351,35024,38633,40145,44559,46219,49726,51192,54442,55924
1,0,2,0,3,0,4,0,5,0,6,0,1,0,2,0,3,0,4,0,5,0,6,0
1155,3158,4678,6089,10477,11918,15861,17379,21280,22771,26904,28424,31367,32980,34916,36356,41119,42390,46788,48099,52656,53980,58425,60229
1,0,2,0,3,0,4,0,5,0,6,0,1,0,2,0,3,0,4,0,5,0,6,0
1613,3309,5024,6608,11046,12632,17170,18563,22981,24545,28770,30370,33712,35483,37085,38669,43116,44656,49278,50832,55165,56836,61119,62669
1,0,2,0,3,0,4,0,5,0,6,0,1,0,2,0,3,0,4,0,5,0,6,0
0,2628,4787,6397,9876,11728,16125,17805,21776,23295,26931,28586,31088,32907,34685,36288,40491,42022,46183,47711,51688,53305,57365,58846
1,0,2,0,3,0,4,0,5,0,6,0,1,0,2,0,3,0,4,0,5,0,6,0
1483,3165,5408,6993,10647,12162,16087,17798,21695,23459,27169,29115,31585,33146,34918,36691,40596,42232,46078,47925,51664,53422,57028,58941
1,0,2,0,3,0,4,0,5,0,6,0,7,0,1,0,2,0,3,0,4,0,5,0,6,0,7,0
1869,3845,5800,7642,11454,13232,16878,18595,22382,24009,27711,29313,33286,35048,37775,39819,41665,43446,47530,49203,53231,55022,58951,60722,64906,66761,70097,71993
1,0,2,0,3,0,4,0,5,0,6,0,7,0,1,0,2,0,3,0,4,0,5,0,6,0,7,0
1840,3558,5393,7259,11224,13051,16828,18701,22745,24549,28344,30177,33772,35599,38423,40298,42248,44032,47736,49495,53285,55042,58700,60545,64057,65428,68769,70389
1,0,2,0,3,0,4,0,5,0,6,0,1,0,2,0,3,0,4,0,5,0,6,0
1886,3665,5866,7600,11636,13372,17022,18831,24638,26768,30392,32345,34754,36512,38419,40172,43904,45711,49402,51243,55608,57366,62000,63679
1,0,2,0,3,0,4,0,5,0,6,0,1,0,2,0,3,0,4,0,5,0,6,0
2297,3876,5956,7611,11577,13505,17063,18821,25791,27501,30675,32674,34847,36632,38279,40055,43505,45384,48685,50519,54129,56094,59146,61036
1,0,2,0,3,0,5,0,4,0,6,0,1,0,2,0,3,0,4,0,5,0,6,0
0,3883,6167,8162,12656,14943,20753,23406,27657,30645,34211,36658,39280,41152,43230,45593,49301,52049,57022,59581,63843,66523,70997,73704
1,0,2,0,3,0,4,0,5,0,6,0,1,0,2,0,3,0,4,0,5,0,6,0
1308,3659,5631,7783,11323,13939,18132,20520,24764,27446,31007,34215,37075,39173,40873,43016,46791,49839,53302,56328,60689,63341,67277,70437
1,0,2,0,3,0,4,0,5,0,6,0,1,0,2,0,3,0,4,0,5,0,6,0
1353,3232,5097,6667,11253,13065,16259,17683,20703,22187,25257,26875,29946,31248,32785,34314,37774,39099,42421,44086,46489,48175,50529,52032
1,0,2,0,3,0,4,0,5,0,6,0,1,0,2,0,3,0,4,0,5,0,6,0
788,2497,3951,5475,8483,9939,12716,14549,16810,18448,21488,23219,25575,27355,29035,30565,33435,35019,37541,39279,41619,43739,45486,47086
1,0,2,0,3,0,4,0,5,0,6,0,1,0,2,0,3,0,4,0,5,0,6,0
617,2080,3832,5316,8747,10271,13954,15600,19230,21103,24346,26701,28954,30505,32245,33949,37273,38821,42058,43630,46854,48404,51015,52517
1,0,2,0,3,0,4,0,5,0,6,0,1,0,2,0,3,0,4,0,5,0,6,0
830,2417,4220,5800,8768,10550,13451,15038,17965,19291,22328,24121,26528,28442,30258,31908,35036,36722,40192,42074,44946,46659,49370,51016
1,0,2,0,3,0,4,0,5,0,6,0,1,0,2,0,3,0,4,0,5,0,6,0
999,2230,4303,5872,9407,11357,14875,16662,20194,22158,25292,27246,29894,31668,33387,35122,38964,40724,43571,45071,47989,49631,52117,54252
1,0,2,0,3,0,4,0,5,0,6,0,1,0,2,0,3,0,4,0,5,0,6,0
761,2162,3776,5388,8338,10085,12905,14853,17614,19509,22382,24362,26486,27822,29339,31213,33997,35827,38629,40567,43125,44914,47313,49215
1,0,2,0,3,0,4,0,5,0,6,0,1,0,2,0,3,0,4,0,5,0,6,0
2570,4276,6213,7851,12574,14306,18321,20079,24080,25661,29977,31948,34819,36377,38167,39919,44792,46378,50646,52168,56227,57990,62036,63750
1,0,2,0,3,0,4,0,5,0,6,0,1,0,2,0,3,0,4,0,5,0,6,0
1383,2905,5054,6679,11310,12853,16993,18690,22974,24659,28913,30405,33940,35720,37716,39421,44208,46056,50671,52503,57169,59053,63419,65249
1,0,2,0,3,0,4,0,5,0,6,0,1,0,2,0,3,0,4,0,5,0,6,0
1896,3265,4894,6445,10415,12042,15920,17752,21589,23231,27205,29125,31870,33692,35542,37248,40003,43185,47350,49103,52993,54749,58512,60506
1,0,2,0,3,0,4,0,5,0,6,0,1,0,2,0,3,0,4,0,5,0,6,0
2504,4410,6444,8184,12639,14410,18263,19960,23852,25454,29540,31472,34627,36526,38410,40103,44667,46701,50762,52526,56824,58589,62507,64328
1,0,2,0,3,0,4,0,5,0,6,0,1,0,2,0,3,0,4,0,5,0,6,0
1057,2393,4479,6282,11600,13279,16093,17998,21191,23381,26834,28731,31297,32801,34778,36776,40154,42210,45199,47035,50331,52208,55441,57224
1,0,2,0,3,0,4,0,5,0,6,0,1,0,2,0,3,0,4,0,5,0,6,0
1362,2933,4545,6271,9052,10602,13228,15142,18390,20031,22890,24696,27054,28901,30644,32377,35193,36881,39220,41203,43926,45827,48123,49985
1,0,2,0,3,0,4,0,5,0,6,0,1,0,2,0,3,0,4,0,5,0,6,0
2811,4687,7112,8878,13204,15124,19327,21468,25236,26983,30940,32890,35366,37269,38914,40676,44266,45987,50062,51767,56016,57759,61755,63622
1,0,2,0,3,0,4,0,5,0,6,0,1,0,2,0,3,0,4,0,5,0,6,0
1931,4281,6232,8096,12056,13691,17786,19540,23475,25041,29271,31157,33745,35554,37519,39294,43252,44913,47921,49316,53039,54666,58695,60428
1,0,2,0,3,0,4,0,5,0,6,0,1,0,2,0,3,0,4,0,5,0,6,0
1565,3052,4989,6770,11214,13041,17561,19224,23395,25045,29598,31036,34044,35613,37689,39625,43805,45577,49214,50579,54124,55691,59188,60809
1,0,2,0,3,0,4,0,5,0,6,0,1,0,2,0,3,0,4,0,5,0,6,0
1067,2543,4310,5826,9437,11001,14674,16317,19722,21490,24640,26169,28747,30500,32339,33943,37500,39157,42945,44437,47835,49455,52918,54600
1,0,2,0,3,0,4,0,5,0,6,0,1,0,2,0,3,0,4,0,5,0,6,0
2965,4430,6119,7597,12084,13504,17813,19353,23835,25544,29517,31190,33650,35262,37178,38864,42449,44130,48410,49982,53697,55388,58892,60519
1,0,2,0,3,0,4,0,5,0,6,0,1,0,2,0,3,0,4,0,5,0,6,0
2947,4649,6358,8183,12065,13598,17253,18698,22581,24181,27575,29237,31685,33039,34910,36645,40130,41666,45027,46678,50251,52036,55404,56857
1,0,2,0,3,0,4,0,5,0,6,0,1,0,2,0,3,0,4,0,5,0,6,0
1323,3286,5159,6745,10612,12319,15556,17715,20998,23113,26142,28273,31173,33171,34964,36799,40302,42294,45239,47346,50414,52612,57444,58993
1,0,2,0,3,0,4,0,5,0,6,0,1,0,2,0,3,0,4,0,5,0,6,0
880,2568,4088,5776,8916,10675,13210,15046,17521,19350,23617,25373,31766,33595,35125,36924,40118,41880,44585,46379,49040,50843,53205,54633
1,0,2,0,3,0,4,0,5,0,6,0,1,0,2,0,3,0,4,0,5,0,6,0
1130,2974,5164,6864,11837,13325,17105,18886,22717,24622,28343,29951,32903,34448,36794,38488,41953,43770,47142,49101,52279,54136,59037,60952
1,0,2,0,3,0,4,0,5,0,6,0,1,0,2,0,3,0,4,0,5,0,6,0
871,2626,4603,6480,9605,11344,14410,16271,19146,21267,24267,26225,29250,30956,32766,34769,37691,39391,42386,44425,47270,49296,51837,53727
1,0,2,0,3,0,4,0,5,0,6,0,1,0,2,0,3,0,4,0,5,0,6,0
1861,3507,5342,7212,11988,13950,17560,19110,23445,25346,28915,30637,33489,35444,38206,40121,43748,45331,49080,50950,54441,56006,59114,60819
1,0,2,0,3,0,4,0,5,0,6,0,1,0,2,0,3,0,4,0,5,0,6,0
789,2316,4721,6183,10372,11918,15018,16618,19879,21546,24735,26257,28810,30354,32409,33979,37430,38914,42565,43910,47085,48489,51646,53088
1,0,2,0,3,0,4,0,5,0,6,0,1,0,2,0,3,0,4,0,5,0,6,0
0,4280,5721,7105,11436,13076,16632,17971,20714,22137,28231,29896,32428,33832,35096,36569,39720,41267,44558,45996,49092,50669,53398,54941
1,0,2,0,3,0,4,0,5,0,6,0,1,0,2,0,3,0,4,0,5,0,6,0
3164,4787,6149,7654,10448,12015,14810,16125,19097,20406,23477,24925,27869,29281,30645,32338,35078,36744,39373,41510,43647,45362,47418,48979
1,0,2,0,3,0,4,0,5,0,6,0,1,0,2,0,3,0,4,0,5,0,6,0
1896,3566,4987,6583,9798,11327,14587,16424,20592,22202,27218,28796,31430,33640,35665,37433,40467,42302,45301,47106,50151,51984,54285,55827
1,0,2,0,3,0,4,0,5,0,6,0,1,0,2,0,3,0,4,0,5,0,6,0
2041,3637,5157,6847,9934,11546,14399,16340,18564,20532,22608,24666,26990,28681,30325,31957,34739,36417,38991,40717,43669,45663,47545,49285
1,0,2,0,3,0,4,0,5,0,6,0,1,0,2,0,3,0,4,0,5,0,6,0
773,2151,3763,5058,8650,9847,13002,14340,17384,18768,21431,22897,25411,26519,31060,32147,35429,36815,39606,41144,44298,45612,48193,49675
1,0,2,0,3,0,4,0,5,0,6,0,1,0,2,0,3,0,4,0,5,0,6,0
653,2138,3861,5374,8473,10043,12659,14093,17128,18389,20832,22362,24578,25839,27926,29659,32826,34161,37112,38535,41428,42714,44929,46369
1,0,2,0,3,0,4,0,5,0,6,0,1,0,2,0,3,0,4,0,5,0,6,0
2068,3701,5321,6782,10166,12262,15719,17350,20418,21868,24955,26831,29245,30658,32231,33888,37090,38978,41761,43602,46587,48460,51218,52958
1,0,2,0,3,0,4,0,5,0,6,0,1,0,2,0,3,0,4,0,5,0,6,0
982,2645,4453,6092,9125,10833,13852,15663,18523,20519,23109,25022,28176,29784,31625,33328,36090,37893,40399,42175,44936,46878,49438,51211
1,0,2,0,3,0,4,0,5,0,6,0,7,0,1,0,2,0,3,0,4,0,5,0,6,0,7,0
2135,4313,6286,8129,13365,15285,19589,21371,25954,27724,31774,33651,37248,38864,40864,42883,44937,46951,50968,53034,56923,58584,62428,64064,68184,70006,73880,75693
1,0,2,0,3,0,4,0,5,0,6,0,7,0,1,0,2,0,3,0,4,0,5,0,6,0,7,0
1069,2918,4701,6385,10141,11733,15613,17360,21075,22612,26455,28227,31650,33314,34934,36935,38819,40557,44723,46625,50307,52178,55833,57590,61235,62987,66751,68249
1,0,2,0,3,0,4,0,5,0,6,0,1,0,2,0,3,0,4,0,5,0,6,0
0,2197,3683,5245,7808,9497,11903,13544,16140,17875,20559,22034,24256,25844,27290,28928,31265,32760,34994,36424,38760,40175,42581,44032
1,0,2,0,3,0,4,0,5,0,6,0,1,0,2,0,3,0,4,0,5,0,6,0
1030,2642,4284,5731,8368,9874,12461,14068,16629,18056,20489,21868,24426,25953,27596,28924,31617,33124,35609,37111,39759,41210,43460,45232
1,0,2,0,3,0,4,0,5,0,6,0,1,0,2,0,3,0,4,0,5,0,6,0
810,2499,4493,6506,10399,12448,16655,18485,22122,24450,28012,29870,33018,34658,36613,38711,42088,43947,47740,49362,52894,54565,60274,61842
1,0,2,0,3,0,4,0,5,0,6,0,1,0,2,0,3,0,4,0,5,0,6,0
625,2102,3787,5807,8991,11266,15294,17979,20788,23433,26249,28409,32366,34210,35938,37892,40845,42933,46761,49010,51832,53792,56821,59021
1,0,2,0,3,0,4,0,5,0,6,0,1,0,2,0,3,0,4,0,5,0,6,0
874,2566,4130,5493,9089,10616,13704,15284,20685,22248,27374,28877,31790,33607,35686,37295,40374,41881,44884,46587,51972,53614,56689,58226
1,0,2,0,3,0,4,0,5,0,6,0,1,0,2,0,3,0,4,0,5,0,6,0
1226,3029,4479,6125,9714,11356,14812,16463,19682,21219,24231,26035,28459,30229,32027,33725,36633,38084,41298,42891,46033,47516,50579,52265
1,0,2,0,3,0,4,0,5,0,6,0,1,0,2,0,3,0,4,0,5,0,6,0
1981,3870,5752,7437,12874,14766,18207,20115,23727,25386,28878,31160,34083,36276,38218,40432,43571,45343,48441,50183,53083,54970,57898,59615
1,0,2,0,3,0,4,0,5,0,6,0,1,0,2,0,3,0,4,0,5,0,6,0
1453,3289,5109,6879,9823,11576,14493,16615,19280,21361,23466,25522,28177,29812,31290,33079,36276,38133,40561,42521,44792,46875,48854,50581
1,0,2,0,3,0,4,0,5,0,6,0,1,0,2,0,3,0,4,0,5,0,6,0
1838,3487,5456,6877,10701,12149,15351,16871,19895,21520,24477,26152,28679,30101,31598,33172,35950,37385,40092,41623,44199,45800,48213,49450
1,0,2,0,3,0,4,0,5,0,6,0,1,0,2,0,3,0,4,0,5,0,6,0
852,2715,4845,6536,9534,11328,13857,15772,18417,20318,22585,24431,26459,28228,29716,31277,33967,35712,38174,39861,42609,44379,46715,48153
1,0,2,0,3,0,4,0,5,0,6,0,1,0,2,0,3,0,4,0,5,0,6,0
742,2224,3806,5332,8937,10476,13727,15414,18839,20191,23578,25028,27713,29524,31460,33172,36422,37963,40893,42375,45474,46939,49816,51227
1,0,2,0,3,0,4,0,5,0,6,0,1,0,2,0,3,0,4,0,5,0,6,0
1538,3032,4790,6351,9271,10878,13645,15054,17908,19450,22333,23892,26382,27986,29796,31090,34161,35552,38544,39892,42898,44282,47104,48669
